freq,alpha,delay,azimuth,ellipticity_angle
297997069000.0,46.02077494038684,270.65295610378195,81.13568855307003,-43.928307747410315
302882267000.0,46.11520260229612,270.7386805682435,80.84246396328963,-43.82525739996369
307767465000.0,46.1931363122516,270.8140416759275,80.58719815767033,-43.739387282821035
312652662000.0,46.25542858970626,270.87885217963276,80.36051625800432,-43.66993511220049
317537860000.0,46.30294009755053,270.9330169315021,80.15689843397854,-43.61611670857445
322423058000.0,46.3365352813585,270.9765326938971,79.97295561644843,-43.57713050964928
327308256000.0,46.35707866356537,271.0094854862303,79.80656528033612,-43.55216121818211
332193454000.0,46.36543139496506,271.03204657496286,79.65640680959231,-43.54038318215862
337078652000.0,46.36244801149276,271.04446783097006,79.52169677047836,-43.540963608466676
341963850000.0,46.34897347038796,271.0470762745734,79.40203633328667,-43.5530656578919
346849047000.0,46.32584046701939,271.04026803339144,79.29732435036316,-43.575851429019636
351734245000.0,46.29386697137636,271.02450188485403,79.20771184671008,-43.60848488267827
356619443000.0,46.25385408973639,271.0002923401972,79.1335885706288,-43.65013462965729
361504641000.0,46.20658412384663,270.96820258426993,79.07559424667474,-43.69997664785421
366389839000.0,46.1528188963385,270.92883721961675,79.03465707805208,-43.75719687145115
371275037000.0,46.0932982986064,270.8828349809136,79.01206415682653,-43.82099365372296
376160234000.0,46.0287390630979,270.8308615070044,79.00957584068125,-43.89058007002621
381045432000.0,45.95983366431897,270.77360217015405,79.0296061842501,-43.96518612586135
385930630000.0,45.88724951734628,270.71175526352357,79.07550764511264,-44.0440606200118
390815828000.0,45.81162821788704,270.64602526400694,79.15203350516515,-44.126472892700434
395701026000.0,45.73358497307958,270.57711652134805,79.26611217269499,-44.21171414954142
400586224000.0,45.65370814472462,270.50572727664553,79.42820751329715,-44.29909825232383
405471422000.0,45.57255890094779,270.4325440622859,79.65485147732626,-44.3879615547029
410356619000.0,45.490670973706514,270.3582365487258,79.97371747139172,-44.47766081585417
415241817000.0,45.408550411733486,270.28345275274285,80.43479252437756,-44.56756683412172
420127015000.0,45.326675561457385,270.20881488690407,81.13828471491492,-44.65704611941216
425012213000.0,45.245496952411145,270.1349154604029,82.31791163008955,-44.74540387352566
429897411000.0,45.165437299858105,270.0623139987744,84.66723233930516,-44.83165437931455
434782609000.0,45.08689154392692,269.9915341787978,91.39447166321393,-44.91300541463281
439667807000.0,45.010226924166716,269.92306144758805,127.55622838452848,-44.960194533957136
444553004000.0,44.935783108344644,269.85734110119523,155.9981679754771,-44.904022445310474
449438202000.0,44.863872275214916,269.7947767683117,161.4958359237187,-44.829530583638345
454323400000.0,44.79477939282335,269.7357294206928,163.6121444099003,-44.75592023081956
459208598000.0,44.7287623704592,269.68051670254914,164.75275447993133,-44.685219944202075
464093796000.0,44.666052330513516,269.62941269664316,165.4886005459637,-44.61809264455553
468978994000.0,44.606853904817626,269.58264804587554,166.02150781559155,-44.55490811977236
473864191000.0,44.55134558225096,269.54041044067236,166.44061673618572,-44.495924499621374
478749389000.0,44.499680048891776,269.5028453730827,166.7913674828224,-44.44133690664305
483634587000.0,44.451984690229345,269.4700572681933,167.09939341355954,-44.3912947837973
488519785000.0,44.40836203107013,269.4421107922659,167.38030998153073,-44.34590939792541
493404983000.0,44.36889028849831,269.4190324416838,167.64423913535802,-44.305257858683895
498290181000.0,44.33362397272661,269.40081231613857,167.89810138255922,-44.269385675634815
503175379000.0,44.302594546782046,269.3874060715183,168.14686497878856,-44.238308682965794
508060576000.0,44.275811152619355,269.37873701794325,168.39426908477998,-44.21201468589637
512945774000.0,44.25326137310266,269.3746983261806,168.64326530203417,-44.190464958784816
517830972000.0,44.234912109917005,269.37515533428683,168.89630003751805,-44.173595748841514
522716170000.0,44.22071046604038,269.37994790106313,169.1555048099234,-44.161319715185435
527601368000.0,44.21058471579113,269.38889280245115,169.42283073189955,-44.15352740124601
532486566000.0,44.20444532505101,269.40178614017213,169.7001495080328,-44.15008871216116
537371764000.0,44.20218602375273,269.4184057392433,169.9893344942735,-44.150854400529006
542256961000.0,44.20368492544025,269.4385135134937,170.29233084061937,-44.15565755401898
547142159000.0,44.20880569397112,269.4618578058813,170.61122151143522,-44.164315085298114
552027357000.0,44.21739874143378,269.48817562568485,170.94829343140265,-44.1766291933644
556912555000.0,44.2293024622155,269.51719485038353,171.30610950815554,-44.19238880739262
561797753000.0,44.24434448865288,269.5486363248644,171.68759039482208,-44.21137098028127
566682951000.0,44.262342966101855,269.58221586764785,172.09611150529994,-44.233342220575935
571568149000.0,44.28310783616523,269.6176461799248,172.53562183135432,-44.258059735503785
576453346000.0,44.30644211967972,269.65463863725705,173.01079262383772,-44.28527255183924
581338544000.0,44.33214321720215,269.692905016606,173.52720790260528,-44.31472250641441
586223742000.0,44.360004151660526,269.73215903076215,174.09161029385493,-44.34614497143446
591108940000.0,44.3898148347291,269.7721178396792,174.71222576142924,-44.37926934798975
595994138000.0,44.42136328785356,269.81250340411503,175.3991950931841,-44.41381914667876
600879336000.0,44.45443683051161,269.8530437518604,176.1651555661235,-44.44951153152511
605764533000.0,44.488823223705026,269.8934741268057,177.02603223518128,-44.486056096495886
610649731000.0,44.52431180259579,269.93353808241017,178.00212528097458,-44.523152585956346
615534929000.0,44.56069448552311,269.9729884038116,179.1196093408551,-44.56048694293112
615534929000.0,44.56069448552311,269.9729884038116,nan,-44.56048694293112
620420127000.0,44.59776680060184,270.011588010584,0.41260552300621034,-44.597725075365844
625305325000.0,44.6353288134582,270.0491107448942,1.9260128526131046,-44.634503066987435
630190523000.0,44.67318599930797,270.08534208140327,3.7192602557668817,-44.67041218199992
635075721000.0,44.711150048256705,270.12007975801345,5.870904814970793,-44.704976340719035
639960918000.0,44.749039591281786,270.1531343349405,8.483170676590044,-44.737619535954295
644846116000.0,44.78668089621927,270.1843297057305,11.683206372075729,-44.76762262772255
649731314000.0,44.823908410297,270.21350348863416,15.612529980553061,-44.79407758899106
654616512000.0,44.860565310041565,270.24050740880347,20.387704540050702,-44.815872674502714
659501710000.0,44.89650393691211,270.26520759495236,26.014032162944382,-44.831788449620724
664386908000.0,44.931586169247694,270.287484817518,32.273935852738916,-44.84080737128892
669272106000.0,44.96568372232556,270.3072346700673,38.70374494203555,-44.842596438257104
674157303000.0,44.9986783715637,270.32436769233374,44.766553631244015,-44.83781076903684
679042501000.0,45.03046214203882,270.3388094480848,50.09698758634328,-44.82787826456414
683927699000.0,45.06093736430306,270.35050051904227,54.58676593313107,-44.81445763419307
688812897000.0,45.0900167361704,270.3593964731253,58.30400820805637,-44.79901651127528
693698095000.0,45.117623290404126,270.3654677643166,61.38457540464299,-44.78268289874844
698583293000.0,45.143690313832295,270.3686995727762,63.96741993167427,-44.7662662518235
703468490000.0,45.16816120854999,270.3690916013064,66.1704142324707,-44.75033031133391
708353688000.0,45.190989329625374,270.3666578056443,68.08650727901528,-44.73526255893451
713238886000.0,45.212137728158396,270.3614260799393,69.78706848044766,-44.72132631697606
718124084000.0,45.23157890416999,270.3534378827077,71.32667778764032,-44.70869656223789
723009282000.0,45.24929449734123,270.34274781391133,72.74740909223732,-44.697483849918804
727894480000.0,45.26527495064716,270.3294231414344,74.08218127233977,-44.68775021929923
732779678000.0,45.279519145130834,270.3135432760171,75.35724577199734,-44.679519861692974
737664875000.0,45.29203400798533,270.2951992055718,76.59399479664937,-44.67278638486178
742550073000.0,45.3028341121758,270.2744928648258,77.81026760059822,-44.6675178484852
747435271000.0,45.3119412336705,270.25153650129965,79.0212883810573,-44.66366034877785
752320469000.0,45.31938392140134,270.2264519663464,80.24033967803753,-44.661140617118484
757205667000.0,45.32519704393888,270.19936998916023,81.47923549342467,-44.65986798341574
762090865000.0,45.32942133094587,270.1704294156079,82.748640601192,-44.659735926596326
766976063000.0,45.332102912625516,270.1397764219308,84.058264022482,-44.66062338353317
771861260000.0,45.3332928566858,270.1075637112031,85.4169428123524,-44.662395962988306
776746458000.0,45.33304670708108,270.07394965899886,86.83262622864775,-44.66490719864082
781631656000.0,45.331424026410524,270.03909751224853,88.3122601137628,-44.667999966718405
786516854000.0,45.32848794445151,270.0031745138669,89.86158026287009,-44.6715082209186
791402052000.0,45.3243047151941,269.9663510561484,91.484817600028,-44.67525918171421
796287250000.0,45.318943282274674,269.92879982912444,93.18433230110246,-44.67907612892115
801172447000.0,45.31247485744995,269.89069498271255,94.96020564964186,-44.68278191289589
806057645000.0,45.304972504628175,269.8522112601276,96.8098391518645,-44.686203250152246
810942843000.0,45.29651075069382,269.8135232246939,98.72762133123095,-44.689175754201095
815828041000.0,45.28716519714681,269.77480442863026,100.70474864656013,-44.69154953857367
820713239000.0,45.27701215484248,269.73622664280276,102.72927425382467,-44.69319503295872
825598437000.0,45.2661282918283,269.69795910730346,104.78644533187577,-44.69400851832729
830483635000.0,45.254590297971745,269.6601678125762,106.85934423402998,-44.69391677821085
835368832000.0,45.242474569190286,269.6230148216167,108.92978979525272,-44.692880276682025
840254030000.0,45.22985689622925,269.58665759087825,110.97939928031525,-44.69089441455121
845139228000.0,45.21681219432608,269.55124840798584,112.9906635011938,-44.68798867931335
850024426000.0,45.20341422684983,269.51693379259274,114.94789761544817,-44.684223801644535
854909624000.0,45.18973535769167,269.4838539793218,116.83794655515699,-44.67968732337953
859794822000.0,45.17584631775633,269.45214243832163,118.6505884656141,-44.67448815377565
864680020000.0,45.16181598886944,269.42192544047566,120.37863692988881,-44.668750736052516
869565217000.0,45.1477112072779,269.39332167406013,122.01779070104367,-44.6626093760539
874450415000.0,45.13359656876776,269.36644187927936,123.56630797721576,-44.656203128544654
879335613000.0,45.11953427849948,269.3413885876152,125.02457958232615,-44.64967149340467
884220811000.0,45.10558398785586,269.3182558473389,126.39467594924889,-44.64315097757887
889106009000.0,45.09180266033955,269.2971290251257,127.6799125034543,-44.63677251272825
893991207000.0,45.07824445014396,269.27808464368036,128.8844656994712,-44.630659621187704
898876404000.0,45.0649605967023,269.2611902675867,130.0130532454728,-44.6249272065113
903761602000.0,45.05199931997004,269.2465044125882,131.07068219508415,-44.61968082686022
908646800000.0,45.0394057557684,269.2340765294485,132.06245675951163,-44.615016348690006
913531998000.0,45.027221876778036,269.2239469894793,132.993442066666,-44.61101985392155
918417196000.0,45.01548643891911,269.216147125358,133.86857090085348,-44.60776773832489
923302394000.0,45.00423493688299,269.2106993002524,134.69258563596583,-44.605326929964235
928187592000.0,44.99349957031808,269.20761701005625,135.4700071189624,-44.60375518479086
933072789000.0,44.98330922270904,269.20690501356,136.2051236929668,-44.60310142525703
937957987000.0,44.97368943978008,269.2085594892132,136.90199607063184,-44.60340609929181
942843185000.0,44.964662437956456,269.21256821862335,137.56447194952793,-44.60470154661239
947728383000.0,44.95624710072602,269.2189107890201,138.19621064505597,-44.60701235836139
952613581000.0,44.948458993891236,269.22755881760526,138.800713742085,-44.61035572706454
957498779000.0,44.941310386555124,269.23847619312386,139.3813618018075,-44.61474178138813
962383977000.0,44.934810279458375,269.2516193327368,139.94145686354045,-44.620173903257026
967269174000.0,44.9289644413596,269.266937448951,140.48427126269473,-44.6266490241245
972154372000.0,44.92377544653759,269.2843728448296,141.01310480908313,-44.63415790739791
977039570000.0,44.919242729851376,269.3038611862131,141.53135103732637,-44.64268539383372
981924768000.0,44.915362636390434,269.32533181370513,142.0425781275007,-44.65221063467814
986809966000.0,44.912128481903395,269.3487080450753,142.55062796499817,-44.66270728771836
991695164000.0,44.909530618643636,269.3739074865676,143.05974106074794,-44.674143678851934
996580362000.0,44.907556505682635,269.40084234734906,143.57471778681057,-44.686482917029494
1001465560000.0,44.906190784572615,269.42941975688075,144.1011311061423,-44.69968294845799
1006350760000.0,44.90541536007793,269.45954209678456,144.64561368322936,-44.71369653327813
1011235960000.0,44.90520948696247,269.49110728436926,145.21625260596863,-44.728471080560496
1016121150000.0,44.90554985833612,269.5240090602424,145.8231455666106,-44.74394831046375
1021006350000.0,44.90641070589711,269.55813757008764,146.479207749799,-44.760063791669914
1025891550000.0,44.90776389699832,269.59337928098927,147.20134698539715,-44.77674575446318
1030776750000.0,44.90957904290845,269.6296175689067,148.0122561499264,-44.793913557190145
1035661940000.0,44.9118236058345,269.6667328961037,148.94318395541595,-44.81147485727862
1040547140000.0,44.91446303494641,269.7046034373431,150.03836836505005,-44.82932109131068
1045432340000.0,44.91746086258519,269.74310494409036,151.36228338976758,-44.84731918591293
1050317540000.0,44.920778851157486,269.78211136805584,153.01184837208845,-44.86529727488852
1055202740000.0,44.92437712418279,269.82149510845653,155.1372240319109,-44.88301795043662
1060087930000.0,44.92821430009819,269.8611272547299,157.97657756860406,-44.90012714851417
1064973130000.0,44.93224767236971,269.90087823801844,161.90728248783125,-44.91605564793051
1069858330000.0,44.936433317734,269.9406176732185,167.48168940632002,-44.9298409889528
1074743530000.0,44.94072628870203,269.9802150165654,175.26247871859053,-44.939906455390435
1074743530000.0,44.94072628870203,269.9802150165654,nan,-44.939906455390435
1079628720000.0,44.94508076561056,270.01953974223477,5.043555103099746,-44.944218528429154
1084513920000.0,44.94945026845151,270.0584620064927,15.019572708435621,-44.94160714064475
1089399120000.0,44.95378778570119,270.0968525130369,23.170068415745842,-44.933062200240926
1094284320000.0,44.95804599952088,270.1345831910741,29.028917250870645,-44.92070123740689
1099169520000.0,44.96217747254684,270.171527477092,33.10103741437167,-44.906266557949195
1104054710000.0,44.96613484310584,270.2075606119406,35.963815408449186,-44.890834090752456
1108939910000.0,44.969871066363524,270.2425603120183,38.0243575954096,-44.87503351064894
1113825110000.0,44.97333957937519,270.2764067130862,39.540654368011616,-44.859248658004454
1118710310000.0,44.976494554446035,270.3089830620896,40.67445696241788,-44.84373057311368
1123595510000.0,44.97929111543935,270.34017604574234,41.52906982144613,-44.828655935659036
1128480700000.0,44.981685562123864,270.369876142794,42.17219631869278,-44.81415731322629
1133365900000.0,44.983635621459214,270.397978283319,42.649338417457294,-44.80033911981403
1138251100000.0,44.9851006523272,270.42438191009984,42.99171754194706,-44.787286606189355
1143136300000.0,44.9860419029657,270.44899165755214,43.22108027968933,-44.77507067416089
1148021490000.0,44.9864227420298,270.4717176825912,43.35267819641283,-44.76375070204106
1152906690000.0,44.98620889728457,270.4924762882065,43.397167323192555,-44.753375967429015
1157791890000.0,44.985368685624444,270.5111900874897,43.36184258778251,-44.74398653147336
1162677090000.0,44.98387324930457,270.5277886373134,43.25145872620124,-44.73561339642262
1167562290000.0,44.98169678240074,270.5422088312958,43.068781290249106,-44.728278447748785
1172447480000.0,44.97881675936195,270.55439531388043,42.81496181942419,-44.721994142700495
1177332680000.0,44.97521412524834,270.5643010049559,42.48979191013572,-44.71676295127263
1182217880000.0,44.970873537645666,270.5718873689314,42.09188308870671,-44.71257676968935
1187103080000.0,44.965783541270305,270.577124924233,41.61878941353741,-44.709416068931795
1191988280000.0,44.95993675844734,270.5799936039952,41.06710111247854,-44.70724899032109
1196873470000.0,44.95333007557529,270.5804831240275,40.43252569088374,-44.70603032189837
1201758670000.0,44.94596474524769,270.5785933232558,39.70996630513945,-44.705700377279086
1206643870000.0,44.93784660912169,270.5743344697852,38.89363626121378,-44.70618384080354
1211529070000.0,44.92898616945847,270.56772754872316,37.977205733488596,-44.707388582796185
1216414260000.0,44.91939872735949,270.55880451922786,36.954027914713244,-44.70920457045947
1221299460000.0,44.90910438728995,270.5476084347621,35.817453842068524,-44.71150301510483
1226184660000.0,44.89812823760398,270.53419370315424,34.56130023067181,-44.71413590048711
1231069860000.0,44.88650031265013,270.51862611764443,33.180455551922584,-44.71693624450835
1235955060000.0,44.874255626331724,270.5009829154213,31.671667913876274,-44.71971939964062
1240840250000.0,44.8614341874666,270.48135280247175,30.034488861999726,-44.72228582537317
1245725450000.0,44.84808085511727,270.45983570632876,28.27228800450183,-44.72442578085137
1250610650000.0,44.83424542889108,270.4365428676366,26.393257092452938,-44.72592616866882
1255495850000.0,44.81998244868659,270.41159645997146,24.411136257615187,-44.72657967743433
1260381050000.0,44.80535109298983,270.3851293303578,22.345471157181727,-44.726195732963184
1265266240000.0,44.7904150511647,270.3572846805254,20.22116977398146,-44.72461233296463
1270151440000.0,44.77524220864592,270.32821537979834,18.067236178738096,-44.72170726546827
1275036640000.0,44.75990460653864,270.29808376597816,15.914842508050102,-44.717407075895785
1279921840000.0,44.74447806019066,270.267060796782,13.794957057409242,-44.71169225438858
1284807030000.0,44.729041927769444,270.2353254603483,11.73603416957236,-44.70459793138515
1289692230000.0,44.71367865458876,270.2030637187481,9.7621392079204,-44.696210125156504
1294577430000.0,44.69847359749,270.170468018541,7.891850583535852,-44.686658749163016
1299462630000.0,44.68351449729606,270.1377360664382,6.13791572522793,-44.67610852670468
1304347830000.0,44.66889107243439,270.1050698463511,4.5076004252212805,-44.66474947103499
1309233020000.0,44.65469457293561,270.07267455754527,3.003482999017216,-44.65278800158499
1314118220000.0,44.64101715389099,270.04075714466336,1.624441639546785,-44.64043922867728
1319003420000.0,44.627951503066754,270.0095254163738,0.3666898741776761,-44.62792102157721
1319003420000.0,44.627951503066754,270.0095254163738,nan,-44.62792102157721
1323888620000.0,44.61559014050675,269.97918642981284,179.22467716147102,-44.61544930795608
1328773820000.0,44.60402482957313,269.9499451432398,178.19184374018218,-44.60323474462153
1333659010000.0,44.593345946550585,269.92200299576734,177.2612007074468,-44.591480355181524
1338544210000.0,44.583641709327615,269.8955561531806,176.42574293087145,-44.58037973895544
1343429410000.0,44.57499759356937,269.87079427286534,175.6787500119843,-44.570115981611195
1348314610000.0,44.56749549790771,269.84789865224644,175.01396737537866,-44.560860603111884
1353199800000.0,44.56121300689754,269.8270406714199,174.42572502389518,-44.552772795088515
1358085000000.0,44.556222546603,269.8083799411175,173.90899818071279,-44.54599861716113
1362970200000.0,44.55259064606379,269.79206285112895,173.4594475079008,-44.540670362801414
1367855400000.0,44.55037705086315,269.77822067020367,173.07342857771948,-44.53690572827975
